================================================================
         omega_k [cm^-1]          g_k [cm^-1]               
================================================================
   -1.141785581285911e-41     5.747973906272597e+03
   -4.228639469658098e-11     5.747973906270848e+03
   -2.919165839695510e-09     5.747973906151889e+03
   -2.252704232088741e-08     5.747973905341097e+03
   -8.599686535354806e-08     5.747973902716605e+03
   -2.347123291046499e-07     5.747973896567180e+03
   -5.237388171099835e-07     5.747973884615861e+03
   -1.021712698092673e-06     5.747973864024510e+03
   -1.811024285002446e-06     5.747973831386273e+03
   -2.987829030117186e-06     5.747973782725091e+03
   -4.662025160074631e-06     5.747973713496646e+03
   -6.957247047049225e-06     5.747973618588626e+03
   -1.001086519825624e-05     5.747973492320724e+03
   -1.397398685516930e-05     5.747973328444619e+03
   -1.901145629088709e-05     5.747973120143958e+03
   -2.530185494461456e-05     5.747972860034354e+03
   -3.303750151446516e-05     5.747972540163381e+03
   -4.242445205347796e-05     5.747972152010573e+03
   -5.368250008321916e-05     5.747971686487416e+03
   -6.704517673069248e-05     5.747971133937348e+03
   -8.275975089232271e-05     5.747970484135740e+03
   -1.010872294285074e-04     5.747969726289908e+03
   -1.223023573923415e-04     5.747968849039092e+03
   -1.466936182963000e-04     5.747967840454444e+03
   -1.745632344208750e-04     5.747966688039021e+03
   -2.062271671693441e-04     5.747965378727776e+03
   -2.420151174730674e-04     5.747963898887530e+03
   -2.822705262518920e-04     5.747962234316969e+03
   -3.273505749344617e-04     5.747960370246608e+03
   -3.776261860434012e-04     5.747958291338789e+03
   -4.334820238505851e-04     5.747955981687632e+03
   -4.953164951078551e-04     5.747953424819032e+03
   -5.635417498587933e-04     5.747950603690608e+03
   -6.385836823373045e-04     5.747947500691681e+03
   -7.208819319590597e-04     5.747944097643230e+03
   -8.108898844118936e-04     5.747940375797852e+03
   -9.090746728516341e-04     5.747936315839719e+03
   -1.015917179209901e-03     5.747931897884527e+03
   -1.131912035620676e-03     5.747927101479438e+03
   -1.257567625972631e-03     5.747921905603023e+03
   -1.393406087594427e-03     5.747916288665206e+03
   -1.539963313080306e-03     5.747910228507179e+03
   -1.697788952263703e-03     5.747903702401340e+03
   -1.867446414346524e-03     5.747896687051205e+03
   -2.049512870192175e-03     5.747889158591322e+03
   -2.244579254790563e-03     5.747881092587180e+03
   -2.453250269903333e-03     5.747872464035107e+03
   -2.676144386898202e-03     5.747863247362158e+03
   -2.913893849780877e-03     5.747853416426006e+03
   -3.167144678433837e-03     5.747842944514815e+03
   -3.436556672071073e-03     5.747831804347109e+03
   -3.722803412918257e-03     5.747819968071631e+03
   -4.026572270127850e-03     5.747807407267196e+03
   -4.348564403939129e-03     5.747794092942532e+03
   -4.689494770093220e-03     5.747779995536112e+03
   -5.050092124512963e-03     5.747765084915975e+03
   -5.431099028258746e-03     5.747749330379537e+03
   -5.833271852770298e-03     5.747732700653395e+03
   -6.257380785405862e-03     5.747715163893113e+03
   -6.704209835289141e-03     5.747696687682997e+03
   -7.174556839476293e-03     5.747677239035866e+03
   -7.669233469453415e-03     5.747656784392801e+03
   -8.189065237976986e-03     5.747635289622891e+03
   -8.734891506268773e-03     5.747612720022943e+03
   -9.307565491577637e-03     5.747589040317216e+03
   -9.907954275120263e-03     5.747564214657101e+03
   -1.053693881041351e-02     5.747538206620813e+03
   -1.119541393201149e-02     5.747510979213057e+03
   -1.188428836465961e-02     5.747482494864678e+03
   -1.260448473287967e-02     5.747452715432299e+03
   -1.335693957099891e-02     5.747421602197932e+03
   -1.414260333363644e-02     5.747389115868589e+03
   -1.496244040666188e-02     5.747355216575862e+03
   -1.581742911863929e-02     5.747319863875481e+03
   -1.670856175277102e-02     5.747283016746866e+03
   -1.763684455935672e-02     5.747244633592655e+03
   -1.860329776878102e-02     5.747204672238197e+03
   -1.960895560504592e-02     5.747163089931061e+03
   -2.065486629986292e-02     5.747119843340468e+03
   -2.174209210732002e-02     5.747074888556760e+03
   -2.287170931913930e-02     5.747028181090808e+03
   -2.404480828054200e-02     5.746979675873409e+03
   -2.526249340673569e-02     5.746929327254658e+03
   -2.652588320004107e-02     5.746877089003299e+03
   -2.783611026767511e-02     5.746822914306043e+03
   -2.919432134020688e-02     5.746766755766883e+03
   -3.060167729070327e-02     5.746708565406338e+03
   -3.205935315458258e-02     5.746648294660718e+03
   -3.356853815019316e-02     5.746585894381337e+03
   -3.513043570013544e-02     5.746521314833702e+03
   -3.674626345334424e-02     5.746454505696663e+03
   -3.841725330795262e-02     5.746385416061563e+03
   -4.014465143495220e-02     5.746313994431318e+03
   -4.192971830267254e-02     5.746240188719504e+03
   -4.377372870209610e-02     5.746163946249378e+03
   -4.567797177302989e-02     5.746085213752888e+03
   -4.764375103115312e-02     5.746003937369655e+03
   -4.967238439596096e-02     5.745920062645894e+03
   -5.176520421962400e-02     5.745833534533326e+03
   -5.392355731678625e-02     5.745744297388046e+03
   -5.614880499531990e-02     5.745652294969344e+03
   -5.844232308805984e-02     5.745557470438514e+03
   -6.080550198553891e-02     5.745459766357594e+03
   -6.323974666974644e-02     5.745359124688088e+03
   -6.574647674892997e-02     5.745255486789652e+03
   -6.832712649346710e-02     5.745148793418712e+03
   -7.098314487282360e-02     5.745038984727076e+03
   -7.371599559362890e-02     5.744926000260481e+03
   -7.652715713888476e-02     5.744809778957101e+03
   -7.941812280833666e-02     5.744690259146008e+03
   -8.239040076002813e-02     5.744567378545607e+03
   -8.544551405306562e-02     5.744441074262000e+03
   -8.858500069161612e-02     5.744311282787316e+03
   -9.181041367016410e-02     5.744177939997985e+03
   -9.512332102005318e-02     5.744040981152993e+03
   -9.852530585733729e-02     5.743900340892033e+03
   -1.020179664319704e-01     5.743755953233660e+03
   -1.056029161783586e-01     5.743607751573358e+03
   -1.092817837673015e-01     5.743455668681570e+03
   -1.130562131593534e-01     5.743299636701680e+03
   -1.169278636596294e-01     5.743139587147918e+03
   -1.208984099740861e-01     5.742975450903231e+03
   -1.249695422673032e-01     5.742807158217086e+03
   -1.291429662217999e-01     5.742634638703223e+03
   -1.334204030989093e-01     5.742457821337336e+03
   -1.378035898012473e-01     5.742276634454710e+03
   -1.422942789368018e-01     5.742091005747780e+03
   -1.468942388846739e-01     5.741900862263644e+03
   -1.516052538625053e-01     5.741706130401500e+03
   -1.564291239956196e-01     5.741506735910022e+03
   -1.613676653879143e-01     5.741302603884669e+03
   -1.664227101945308e-01     5.741093658764936e+03
   -1.715961066963420e-01     5.740879824331518e+03
   -1.768897193762890e-01     5.740661023703420e+03
   -1.823054289975948e-01     5.740437179334992e+03
   -1.878451326839048e-01     5.740208213012885e+03
   -1.935107440013724e-01     5.739974045852944e+03
   -1.993041930427416e-01     5.739734598297017e+03
   -2.052274265134481e-01     5.739489790109694e+03
   -2.112824078197927e-01     5.739239540374959e+03
   -2.174711171592063e-01     5.738983767492776e+03
   -2.237955516126646e-01     5.738722389175584e+03
   -2.302577252392742e-01     5.738455322444714e+03
   -2.368596691730841e-01     5.738182483626715e+03
   -2.436034317221476e-01     5.737903788349618e+03
   -2.504910784698966e-01     5.737619151539083e+03
   -2.575246923788484e-01     5.737328487414468e+03
   -2.647063738967000e-01     5.737031709484831e+03
   -2.720382410648553e-01     5.736728730544800e+03
   -2.795224296294172e-01     5.736419462670388e+03
   -2.871610931547006e-01     5.736103817214695e+03
   -2.949564031393085e-01     5.735781704803500e+03
   -3.029105491348164e-01     5.735453035330796e+03
   -3.110257388671101e-01     5.735117717954178e+03
   -3.193041983604331e-01     5.734775661090169e+03
   -3.277481720641781e-01     5.734426772409410e+03
   -3.363599229824929e-01     5.734070958831774e+03
   -3.451417328067291e-01     5.733708126521349e+03
   -3.540959020508017e-01     5.733338180881330e+03
   -3.632247501895055e-01     5.732961026548787e+03
   -3.725306157998385e-01     5.732576567389327e+03
   -3.820158567053937e-01     5.732184706491647e+03
   -3.916828501238728e-01     5.731785346161952e+03
   -4.015339928177774e-01     5.731378387918274e+03
   -4.115717012483300e-01     5.730963732484655e+03
   -4.217984117326898e-01     5.730541279785223e+03
   -4.322165806045345e-01     5.730110928938126e+03
   -4.428286843780298e-01     5.729672578249340e+03
   -4.536372199153024e-01     5.729226125206371e+03
   -4.646447045974442e-01     5.728771466471787e+03
   -4.758536764991038e-01     5.728308497876646e+03
   -4.872666945667750e-01     5.727837114413777e+03
   -4.988863388008022e-01     5.727357210230916e+03
   -5.107152104411961e-01     5.726868678623712e+03
   -5.227559321573387e-01     5.726371412028574e+03
   -5.350111482416052e-01     5.725865302015387e+03
   -5.474835248070378e-01     5.725350239280072e+03
   -5.601757499890817e-01     5.724826113636980e+03
   -5.730905341515217e-01     5.724292814011159e+03
   -5.862306100966319e-01     5.723750228430441e+03
   -5.995987332796758e-01     5.723198244017378e+03
   -6.131976820277936e-01     5.722636746981008e+03
   -6.270302577633925e-01     5.722065622608465e+03
   -6.410992852320878e-01     5.721484755256409e+03
   -6.554076127353220e-01     5.720894028342288e+03
   -6.699581123677048e-01     5.720293324335430e+03
   -6.847536802592020e-01     5.719682524747945e+03
   -6.997972368222459e-01     5.719061510125449e+03
   -7.150917270038518e-01     5.718430160037610e+03
   -7.306401205428569e-01     5.717788353068497e+03
   -7.464454122323658e-01     5.717135966806736e+03
   -7.625106221874881e-01     5.716472877835477e+03
   -7.788387961185202e-01     5.715798961722152e+03
   -7.954330056096011e-01     5.715114093008046e+03
   -8.122963484030030e-01     5.714418145197637e+03
   -8.294319486891626e-01     5.713710990747752e+03
   -8.468429574025210e-01     5.712992501056482e+03
   -8.645325525233351e-01     5.712262546451903e+03
   -8.825039393855512e-01     5.711520996180550e+03
   -9.007603509908531e-01     5.710767718395686e+03
   -9.193050483290216e-01     5.710002580145329e+03
   -9.381413207047372e-01     5.709225447360033e+03
   -9.572724860709103e-01     5.708436184840456e+03
   -9.767018913687125e-01     5.707634656244652e+03
   -9.964329128744240e-01     5.706820724075138e+03
   -1.016468956553238e+00     5.705994249665688e+03
   -1.036813458420145e+00     5.705155093167881e+03
   -1.057469884908055e+00     5.704303113537393e+03
   -1.078441733243310e+00     5.703438168519975e+03
   -1.099732531828701e+00     5.702560114637222e+03
   -1.121345840634189e+00     5.701668807172005e+03
   -1.143285251595439e+00     5.700764100153654e+03
   -1.165554389020375e+00     5.699845846342828e+03
   -1.188156910003866e+00     5.698913897216102e+03
   -1.211096504850755e+00     5.697968102950245e+03
   -1.234376897507392e+00     5.697008312406187e+03
   -1.258001846001811e+00     5.696034373112675e+03
   -1.281975142892799e+00     5.695046131249615e+03
   -1.306300615727971e+00     5.694043431631066e+03
   -1.330982127511093e+00     5.693026117687918e+03
   -1.356023577178814e+00     5.691994031450226e+03
   -1.381428900087008e+00     5.690947013529193e+03
   -1.407202068506987e+00     5.689884903098786e+03
   -1.433347092131658e+00     5.688807537877022e+03
   -1.459868018592016e+00     5.687714754106847e+03
   -1.486768933984046e+00     5.686606386536664e+03
   -1.514053963406334e+00     5.685482268400464e+03
   -1.541727271508590e+00     5.684342231397563e+03
   -1.569793063051328e+00     5.683186105671950e+03
   -1.598255583476951e+00     5.682013719791207e+03
   -1.627119119492494e+00     5.680824900725023e+03
   -1.656387999664237e+00     5.679619473823282e+03
   -1.686066595024519e+00     5.678397262793699e+03
   -1.716159319690965e+00     5.677158089679039e+03
   -1.746670631498428e+00     5.675901774833851e+03
   -1.777605032643953e+00     5.674628136900752e+03
   -1.808967070344951e+00     5.673336992786238e+03
   -1.840761337511053e+00     5.672028157635999e+03
   -1.872992473429785e+00     5.670701444809763e+03
   -1.905665164466482e+00     5.669356665855590e+03
   -1.938784144778694e+00     5.667993630483697e+03
   -1.972354197045509e+00     5.666612146539722e+03
   -2.006380153212013e+00     5.665212019977459e+03
   -2.040866895249372e+00     5.663793054831040e+03
   -2.075819355930739e+00     5.662355053186549e+03
   -2.111242519623546e+00     5.660897815153067e+03
   -2.147141423098363e+00     5.659421138833111e+03
   -2.183521156354868e+00     5.657924820292485e+03
   -2.220386863465249e+00     5.656408653529516e+03
   -2.257743743435506e+00     5.654872430443624e+03
   -2.295597051084980e+00     5.653315940803306e+03
   -2.333952097944679e+00     5.651738972213404e+03
   -2.372814253174726e+00     5.650141310081729e+03
   -2.412188944501521e+00     5.648522737584976e+03
   -2.452081659174917e+00     5.646883035633957e+03
   -2.492497944946080e+00     5.645221982838069e+03
   -2.533443411066430e+00     5.643539355469075e+03
   -2.574923729308196e+00     5.641834927424063e+03
   -2.616944635007124e+00     5.640108470187695e+03
   -2.659511928127901e+00     5.638359752793615e+03
   -2.702631474352836e+00     5.636588541785057e+03
   -2.746309206194423e+00     5.634794601174630e+03
   -2.790551124132273e+00     5.632977692403235e+03
   -2.835363297775184e+00     5.631137574298116e+03
   -2.880751867048850e+00     5.629274003030023e+03
   -2.926723043409961e+00     5.627386732069444e+03
   -2.973283111087305e+00     5.625475512141910e+03
   -3.020438428350553e+00     5.623540091182331e+03
   -3.068195428807500e+00     5.621580214288355e+03
   -3.116560622730459e+00     5.619595623672702e+03
   -3.165540598412631e+00     5.617586058614485e+03
   -3.215142023555021e+00     5.615551255409447e+03
   -3.265371646685039e+00     5.613490947319123e+03
   -3.316236298607336e+00     5.611404864518889e+03
   -3.367742893887833e+00     5.609292734044855e+03
   -3.419898432371861e+00     5.607154279739605e+03
   -3.472710000737297e+00     5.604989222196707e+03
   -3.526184774083537e+00     5.602797278704021e+03
   -3.580330017557492e+00     5.600578163185719e+03
   -3.635153088017410e+00     5.598331586143009e+03
   -3.690661435735569e+00     5.596057254593542e+03
   -3.746862606141123e+00     5.593754872009435e+03
   -3.803764241603838e+00     5.591424138253897e+03
   -3.861374083260273e+00     5.589064749516423e+03
   -3.919699972883156e+00     5.586676398246495e+03
   -3.978749854795526e+00     5.584258773085780e+03
   -4.038531777830658e+00     5.581811558798757e+03
   -4.099053897339185e+00     5.579334436201750e+03
   -4.160324477244675e+00     5.576827082090323e+03
   -4.222351892149086e+00     5.574289169164970e+03
   -4.285144629489576e+00     5.571720365955092e+03
   -4.348711291747952e+00     5.569120336741171e+03
   -4.413060598714548e+00     5.566488741475125e+03
   -4.478201389807941e+00     5.563825235698780e+03
   -4.544142626452032e+00     5.561129470460408e+03
   -4.610893394512578e+00     5.558401092229262e+03
   -4.678462906794353e+00     5.555639742808090e+03
   -4.746860505601244e+00     5.552845059243529e+03
   -4.816095665360862e+00     5.550016673734342e+03
   -4.886177995315728e+00     5.547154213537430e+03
   -4.957117242282920e+00     5.544257300871559e+03
   -5.028923293484390e+00     5.541325552818726e+03
   -5.101606179449989e+00     5.538358581223112e+03
   -5.175176076995472e+00     5.535355992587538e+03
   -5.249643312277722e+00     5.532317387967348e+03
   -5.325018363929728e+00     5.529242362861665e+03
   -5.401311866277599e+00     5.526130507101916e+03
   -5.478534612642208e+00     5.522981404737561e+03
   -5.556697558728326e+00     5.519794633918934e+03
   -5.635811826103674e+00     5.516569766777121e+03
   -5.715888705771064e+00     5.513306369300773e+03
   -5.796939661836336e+00     5.510004001209758e+03
   -5.878976335275220e+00     5.506662215825579e+03
   -5.962010547802485e+00     5.503280559938427e+03
   -6.046054305846483e+00     5.499858573670793e+03
   -6.131119804632524e+00     5.496395790337512e+03
   -6.217219432378778e+00     5.492891736302142e+03
   -6.304365774608361e+00     5.489345930829548e+03
   -6.392571618581216e+00     5.485757885934594e+03
   -6.481849957850268e+00     5.482127106226796e+03
   -6.572213996945461e+00     5.478453088750823e+03
   -6.663677156190392e+00     5.474735322822694e+03
   -6.756253076655787e+00     5.470973289861572e+03
   -6.849955625254583e+00     5.467166463216965e+03
   -6.944798899983406e+00     5.463314307991205e+03
   -7.040797235315571e+00     5.459416280857065e+03
   -7.137965207750748e+00     5.455471829870335e+03
   -7.236317641526727e+00     5.451480394277186e+03
   -7.335869614499125e+00     5.447441404316167e+03
   -7.436636464194806e+00     5.443354281014641e+03
   -7.538633794045150e+00     5.439218435979478e+03
   -7.641877479805640e+00     5.435033271181818e+03
   -7.746383676168454e+00     5.430798178735678e+03
   -7.852168823575155e+00     5.426512540670210e+03
   -7.959249655236256e+00     5.422175728695413e+03
   -8.067643204365780e+00     5.417787103961009e+03
   -8.177366811638466e+00     5.413346016808309e+03
   -8.288438132877772e+00     5.408851806514803e+03
   -8.400875146983349e+00     5.404303801031174e+03
   -8.514696164106917e+00     5.399701316710550e+03
   -8.629919834086001e+00     5.395043658029643e+03
   -8.746565155144946e+00     5.390330117301515e+03
   -8.864651482874050e+00     5.385559974379667e+03
   -8.984198539496537e+00     5.380732496353138e+03
   -9.105226423435523e+00     5.375846937232265e+03
   -9.227755619191798e+00     5.370902537624787e+03
   -9.351807007545000e+00     5.365898524401917e+03
   -9.477401876090809e+00     5.360834110354010e+03
   -9.604561930127474e+00     5.355708493835443e+03
   -9.733309303905511e+00     5.350520858398295e+03
   -9.863666572255273e+00     5.345270372414395e+03
   -9.995656762607656e+00     5.339956188685310e+03
   -1.012930336742380e+01     5.334577444039781e+03
   -1.026463035705057e+01     5.329133258918159e+03
   -1.040166219301967e+01     5.323622736943284e+03
   -1.054042384180813e+01     5.318044964477316e+03
   -1.068094078908021e+01     5.312399010163957e+03
   -1.082323905443045e+01     5.306683924455444e+03
   -1.096734520664936e+01     5.300898739123754e+03
   -1.111328637953401e+01     5.295042466755353e+03
   -1.126109028826665e+01     5.289114100228823e+03
   -1.141078524638653e+01     5.283112612174675e+03
   -1.156240018338030e+01     5.277036954416599e+03
   -1.171596466291826e+01     5.270886057393403e+03
   -1.187150890176504e+01     5.264658829560822e+03
   -1.202906378939500e+01     5.258354156772318e+03
   -1.218866090834353e+01     5.251970901638052e+03
   -1.235033255532767e+01     5.245507902861029e+03
   -1.251411176317157e+01     5.238963974549458e+03
   -1.268003232357308e+01     5.232337905504302e+03
   -1.284812881075061e+01     5.225628458480936e+03
   -1.301843660601137e+01     5.218834369423754e+03
   -1.319099192328436e+01     5.211954346672541e+03
   -1.336583183566337e+01     5.204987070139368e+03
   -1.354299430300860e+01     5.197931190454632e+03
   -1.372251820065772e+01     5.190785328080885e+03
   -1.390444334929954e+01     5.183548072392996e+03
   -1.408881054606847e+01     5.176217980723016e+03
   -1.427566159691820e+01     5.168793577368205e+03
   -1.446503935033933e+01     5.161273352560430e+03
