================================================================
         omega_k [cm^-1]          z_k [cm^-1]                   
================================================================
   -1.896444004561281e+02     1.765777931793710e+01
   -1.725075659814776e+02     1.613404267758159e+01
   -1.569106024676767e+02     1.472883543794942e+01
   -1.427164802373146e+02     1.343617150435849e+01
   -1.298001847004946e+02     1.224950746079818e+01
   -1.180476826350774e+02     1.116203104746769e+01
   -1.073549750414852e+02     1.016687682717281e+01
   -9.762722984279888e+01     9.257283364786257e+00
   -8.877798825659565e+01     8.426704166372332e+00
   -8.072843894703645e+01     7.668882548871831e+00
   -7.340675430402933e+01     6.977898753876706e+00
   -6.674748349859192e+01     6.348196033354565e+00
   -6.069099734609834e+01     5.774591103912459e+00
   -5.518298044104587e+01     5.252273253638051e+00
   -5.017396646624390e+01     4.776795459105989e+00
   -4.561891299257248e+01     4.344060104498703e+00
   -4.147681245429433e+01     3.950301269803381e+00
   -3.771033630411512e+01     3.592065052837031e+00
   -3.428550962505772e+01     3.266188993271579e+00
   -3.117141371004409e+01     2.969781359184572e+00
   -2.833991432300001e+01     2.700200822131783e+00
   -2.576541353456148e+01     2.455036870933626e+00
   -2.342462318676057e+01     2.232091184738273e+00
   -2.129635818849750e+01     2.029360091920502e+00
   -1.936134797992398e+01     1.845018174407982e+00
   -1.760206463083221e+01     1.677403030281321e+00
   -1.600256615685270e+01     1.525001175678596e+00
   -1.454835374837591e+01     1.386435046110359e+00
   -1.322624171105224e+01     1.260451044218674e+00
   -1.202423901379487e+01     1.145908573532282e+00
   -1.093144143066657e+01     1.041769994216410e+00
   -9.937933347121822e+00     9.470914359737139e-01
   -9.034698379060224e+00     8.610144042427205e-01
   -8.213538025302974e+00     7.827581180285911e-01
   -7.466997640725869e+00     7.116125206370558e-01
   -6.788299078677008e+00     6.469319079467645e-01
   -6.171279407788953e+00     5.881291224252939e-01
   -5.610335160179091e+00     5.346702647163326e-01
   -5.100371615629927e+00     4.860698781963889e-01
   -4.636756669957620e+00     4.418865653511120e-01
   -4.215278875704809e+00     4.017189981112104e-01
   -3.832109279814220e+00     3.652022873920179e-01
   -3.483766716317422e+00     3.320046799862575e-01
   -3.167086242559777e+00     3.018245536638426e-01
   -2.879190435312566e+00     2.743876838376713e-01
   -2.617463288515596e+00     2.494447574668192e-01
   -2.379526477551897e+00     2.267691119971401e-01
   -2.163217776069275e+00     2.061546790941792e-01
   -1.966571430605748e+00     1.874141147154623e-01
   -1.787800315807993e+00     1.703770987097744e-01
   -1.625279709002177e+00     1.548887886310429e-01
   -1.477532537420544e+00     1.408084138246314e-01
   -1.343215964630044e+00     1.280079970944482e-01
   -1.221109194765218e+00     1.163711923999856e-01
   -1.110102384141424e+00     1.057922280723628e-01
   -1.009186559811974e+00     9.617494598609594e-02
   -9.174444537215753e-01     8.743192798652881e-02
   -8.340421693784643e-01     7.948370165898551e-02
   -7.582216054920717e-01     7.225801824134388e-02
   -6.892935678683881e-01     6.568919613316403e-02
   -6.266315070824352e-01     5.971752404731895e-02
   -5.696658251116992e-01     5.428871838949634e-02
   -5.178786992666851e-01     4.935342994171206e-02
   -4.707993764409096e-01     4.486679537242477e-02
   -4.279998949646845e-01     4.078802950194676e-02
   -3.890911952231366e-01     3.708005462122483e-02
   -3.537195837238994e-01     3.370916349800109e-02
   -3.215635185054828e-01     3.064471300989196e-02
   -2.923306866923339e-01     2.785884562175830e-02
   -2.657553476533124e-01     2.532623617739904e-02
   -2.415959176306118e-01     2.302386170534789e-02
   -2.196327738978353e-01     2.093079214746238e-02
   -1.996662584987460e-01     1.902800010895050e-02
   -1.815148634301916e-01     1.729818790119731e-02
   -1.650135807802199e-01     1.572563030579745e-02
   -1.500124028303646e-01     1.429603163098341e-02
   -1.363749584930426e-01     1.299639576145910e-02
   -1.239772736933112e-01     1.181490802068292e-02
   -1.127066444300732e-01     1.074082777195486e-02
   -1.024606122754292e-01     9.764390782228159e-03
   -9.314603300149875e-02     8.876720461269774e-03
   -8.467822987013623e-02     8.069747169438132e-03
   -7.698022389019807e-02     7.336134860664323e-03
   -6.998203404637389e-02     6.669214393880258e-03
   -6.362004113940778e-02     6.062922906737151e-03
   -5.783640945558015e-02     5.511748700550848e-03
   -5.257856100884395e-02     5.010681135498118e-03
   -4.779869757677749e-02     4.555165080622870e-03
   -4.345336618586996e-02     4.141059504609310e-03
   -3.950306409653839e-02     3.764599830912980e-03
   -3.591187969727009e-02     3.422363715056359e-03
   -3.264716604365515e-02     3.111239932999529e-03
   -2.967924407478237e-02     2.828400097775249e-03
   -2.698113280921383e-02     2.571272947284741e-03
   -2.452830406797908e-02     2.337520969521786e-03
   -2.229845949496750e-02     2.125019152739508e-03
   -2.027132784777141e-02     1.931835667389751e-03
   -1.842848071628503e-02     1.756214304224460e-03
   -1.675316499386940e-02     1.596558508912606e-03
   -1.523015057817293e-02     1.451416868038407e-03
   -1.384559191713464e-02     1.319469914539965e-03
   -1.258690214155161e-02     1.199518132641882e-03
   -1.144263864000557e-02     1.090471053238802e-03
   -1.040239903595763e-02     9.913373405997792e-04
   -9.456726621378914e-03     9.012157802746794e-04
   -8.597024387247739e-03     8.192870862764151e-04
   -7.815476869393439e-03     7.448064530602774e-04
   -7.104979099211559e-03     6.770967845923063e-04
   -6.459072013362039e-03     6.155425389538722e-04
   -5.871883735277575e-03     5.595841325250777e-04
   -5.338076194687409e-03     5.087128528766800e-04
   -4.852796599887433e-03     4.624662341246489e-04
   -4.411633321602130e-03     4.204238527055934e-04
   -4.010575787387976e-03     3.822035053532613e-04
   -3.645978021986494e-03     3.474577345307119e-04
   -3.314525502179392e-03     3.158706697315074e-04
   -3.013205024829348e-03     2.871551559346622e-04
   -2.739277314182099e-03     2.610501431085909e-04
   -2.490252119407420e-03     2.373183130324303e-04
   -2.263865575994760e-03     2.157439218604854e-04
   -2.058059625199447e-03     1.961308388168906e-04
   -1.870963304444741e-03     1.783007631904751e-04
   -1.700875738593462e-03     1.620916034208125e-04
   -1.546250677465178e-03     1.473560035398921e-04
   -1.405682439031627e-03     1.339600035735048e-04
   -1.277893130501786e-03     1.217818217241933e-04
   -1.161721031125091e-03     1.107107472647482e-04
   -1.056110031102308e-03     1.006461340776658e-04
   -9.601000305944706e-04     9.149648569095353e-05
   -8.728182115483976e-04     8.317862349243839e-05
   -7.934711029919815e-04     7.561693056091565e-05
   -7.213373676657244e-04     6.874266423987700e-05
   -6.557612444146064e-04     6.249333120450778e-05
   -5.961465867257823e-04     5.681211934074809e-05
   -5.419514432170930e-04     5.164738127169040e-05
   -4.926831308081908e-04     4.695216483610591e-05
   -4.478937557849948e-04     4.268378625072406e-05
   -4.071761420399298e-04     3.880344207593301e-05
   -3.701601294720084e-04     3.527585645731106e-05
   -3.365092088958750e-04     3.206896043610482e-05
   -3.059174628681162e-04     2.915360041329156e-05
   -2.781067846201905e-04     2.650327311690354e-05
   -2.528243498155700e-04     2.409388466322736e-05
   -2.298403181470895e-04     2.190353152152639e-05
   -2.089457438799451e-04     1.991230139105832e-05
   -1.899506763452919e-04     1.810209218017904e-05
   -1.726824331162128e-04     1.645644744188972e-05
   -1.569840301676632e-04     1.496040676978686e-05
   -1.427127547491278e-04     1.360036979437852e-05
   -1.297388679961098e-04     1.236397254337160e-05
   -1.179444254860147e-04     1.123997504193075e-05
   -1.072222050162167e-04     1.021815913109575e-05
   -9.747473185683374e-05     9.289235575432326e-06
   -8.861339261688154e-05     8.444759615441734e-06
   -8.055762966804104e-05     7.677054197023328e-06
   -7.323420880262448e-05     6.979140180076752e-06
   -6.657655346808532e-05     6.344672891776089e-06
   -6.052413952565935e-05     5.767884447728033e-06
   -5.502194503094499e-05     5.243531316660911e-06
   -5.001995003442793e-05     4.766846651959924e-06
   -4.547268185468334e-05     4.333496956699119e-06
   -4.133880169037610e-05     3.939542688215658e-06
   -3.758072881298680e-05     3.581402444086431e-06
   -3.416429892383427e-05     3.255820403924864e-06
   -3.105845356954949e-05     2.959836731014290e-06
   -2.823495779250568e-05     2.690760664701830e-06
   -2.566814344939040e-05     2.446146058938349e-06
   -2.333467586445240e-05     2.223769144587342e-06
   -2.121334169608914e-05     2.021608313342160e-06
   -1.928485608828964e-05     1.837825739468855e-06
   -1.753168735376404e-05     1.670750672299695e-06
   -1.593789759497016e-05     1.518864247590863e-06
   -1.448899781413751e-05     1.380785679665817e-06
   -1.317181619510706e-05     1.255259708818311e-06
   -1.197437835954906e-05     1.141145189860619e-06
   -1.088579850897916e-05     1.037404718076421e-06
   -9.896180462954769e-06     9.430951982689062e-07
   -8.996527693798922e-06     8.573592711681080e-07
   -8.178661539985525e-06     7.794175192557647e-07
   -7.435146854671407e-06     7.085613811515482e-07
   -6.759224413452613e-06     6.441467101459885e-07
   -6.144749466870117e-06     5.855879183213265e-07
   -5.586135879051358e-06     5.323526530249989e-07
   -5.078305344657039e-06     4.839569573000934e-07
   -4.616641222469125e-06     4.399608702766448e-07
   -4.196946565925348e-06     3.999644275273899e-07
   -3.815405969059675e-06     3.636040250275193e-07
   -3.468550880993615e-06     3.305491136635448e-07
   -3.153228073655580e-06     3.004991942413738e-07
   -2.866570976071206e-06     2.731810856754547e-07
   -2.605973614627276e-06     2.483464415243624e-07
   -2.369066922402556e-06     2.257694922958837e-07
   -2.153697202195814e-06     2.052449929970926e-07
   -1.957906547460386e-06     1.865863572707734e-07
   -1.779915043153778e-06     1.696239611558185e-07
   -1.618104584691841e-06     1.542036010512150e-07
   -1.471004167907118e-06     1.401850918651300e-07
   -1.337276516283699e-06     1.274409926049851e-07
   -1.215705923897991e-06     1.158554478229798e-07
   -1.105187203546702e-06     1.053231343847468e-07
   -1.004715639590451e-06     9.574830398631492e-08
   -9.133778541752363e-07     8.704391271498183e-08
   -8.303435037974042e-07     7.913082974101655e-08
   -7.548577307263470e-07     7.193711794648112e-08
   -6.862343006615001e-07     6.539737995143116e-08
   -6.238493642387069e-07     5.945216359228024e-08
   -5.671357856723610e-07     5.404742144758521e-08
   -5.155779869755428e-07     4.913401949785257e-08
   -4.687072608874097e-07     4.466729045263280e-08
   -4.260975098981020e-07     4.060662768424430e-08
   -3.873613726350157e-07     3.691511607661264e-08
   -3.521467023957809e-07     3.355919643330658e-08
   -3.201333658146041e-07     3.050836039393352e-08
   -2.910303325589441e-07     2.773487308540930e-08
   -2.645730295992162e-07     2.521352098674829e-08
   -2.405209359994331e-07     2.292138271523619e-08
   -2.186553963632412e-07     2.083762065022326e-08
   -1.987776330575915e-07     1.894329150021012e-08
   -1.807069391433471e-07     1.722117409110593e-08
   -1.642790355849289e-07     1.565561281010118e-08
   -1.493445778045370e-07     1.423237528191418e-08
   -1.357677980041709e-07     1.293852298356165e-08
   -1.234252709129210e-07     1.176229362142244e-08
   -1.122047917390507e-07     1.069299420129537e-08
   -1.020043561264359e-07     9.720903819361308e-09
   -9.273123284223610e-08     8.837185290330007e-09
   -8.430112076568707e-08     8.033804809392184e-09
   -7.663738251427575e-08     7.303458917630319e-09
   -6.967034774026286e-08     6.639508106937526e-09
   -6.333667976388541e-08     6.035916460853013e-09
   -5.757879978535874e-08     5.487196782594243e-09
   -5.234436344124211e-08     4.988360711449814e-09
   -4.758578494658942e-08     4.534873374045683e-09
   -4.325980449690418e-08     4.122612158223689e-09
   -3.932709499718949e-08     3.747829234749085e-09
   -3.575190454290277e-08     3.407117486135760e-09
   -3.250173140264153e-08     3.097379532850883e-09
   -2.954702854785814e-08     2.815799575319141e-09
   -2.686093504350920e-08     2.559817795744803e-09
   -2.441903185773714e-08     2.327107087040833e-09
   -2.219911987067137e-08     2.115551897309938e-09
   -2.018101806424772e-08     1.923228997554564e-09
   -1.834638005840787e-08     1.748389997776939e-09
   -1.667852732582603e-08     1.589445452524539e-09
   -1.516229756893333e-08     1.444950411385984e-09
   -1.378390688084896e-08     1.313591283078202e-09
   -1.253082443713582e-08     1.194173893707484e-09
   -1.139165857921470e-08     1.085612630643193e-09
   -1.035605325383181e-08     9.869205733120082e-10
   -9.414593867120055e-09     8.972005211927553e-10
    1.904229624638289e+02     1.810308675060397e+01
    1.731530404311182e+02     1.647022783473065e+01
    1.574454392308656e+02     1.498253745096875e+01
    1.431594374625991e+02     1.362764411101897e+01
    1.301669058022784e+02     1.239409583890319e+01
    1.183511926713568e+02     1.127132661414046e+01
    1.076061045956901e+02     1.024961384346561e+01
    9.783497485310208e+01     9.320030568956925e+00
    8.894981400165747e+01     8.474395070549576e+00
    8.087053584265738e+01     7.705219744659051e+00
    7.352425245116660e+01     7.005660573869597e+00
    6.684463215194936e+01     6.369468089985698e+00
    6.077131470657586e+01     5.790940430931333e+00
    5.524937845104279e+01     5.264878869711244e+00
    5.022885462344282e+01     4.786546029320699e+00
    4.566428460381299e+01     4.351626876400052e+00
    4.151431622806845e+01     3.956192498314277e+00
    3.774133572551205e+01     3.596666605690825e+00
    3.431113216569948e+01     3.269794659499750e+00
    3.119259159154572e+01     2.972615493911229e+00
    2.835741826920189e+01     2.702435289719473e+00
    2.577988070875296e+01     2.456803745105787e+00
    2.343658030925938e+01     2.233492288579222e+00
    2.130624066172893e+01     2.030474181253394e+00
    1.936951570762769e+01     1.845906360803102e+00
    1.760881510089627e+01     1.678112886455792e+00
    1.600814525980589e+01     1.525569852451498e+00
    1.455296472256942e+01     1.386891646006137e+00
    1.323005253831943e+01     1.260818434556452e+00
    1.202738853360468e+01     1.146204775689465e+00
    1.093404439455653e+01     1.042009251495122e+00
    9.940084596899940e+00     9.472850370200175e-01
    9.036476300552220e+00     8.611713199817005e-01
    8.215007403171228e+00     7.828854958975855e-01
    7.468212018163400e+00     7.117160692822943e-01
    6.789302707807486e+00     6.470161975796791e-01
    6.172108861737412e+00     5.881978200373903e-01
    5.611020665482494e+00     5.347263188256188e-01
    5.100938153489077e+00     4.861156643733131e-01
    4.637224886424280e+00     4.419240011726042e-01
    4.215665833946701e+00     4.017496342129835e-01
    3.832429081853442e+00     3.652273797790164e-01
    3.484031016886806e+00     3.320252476048875e-01
    3.167304673794191e+00     3.018414243517418e-01
    2.879370957745520e+00     2.744015310829848e-01
    2.617612481167832e+00     2.494561298807539e-01
    2.379649777680429e+00     2.267784569943676e-01
    2.163319677311751e+00     2.061623619577089e-01
    1.966655646739545e+00     1.874204339748334e-01
    1.787869916090815e+00     1.703822985677789e-01
    1.625337230025631e+00     1.548930690224369e-01
    1.477580075552464e+00     1.408119385710118e-01
    1.343255252414110e+00     1.280109005254793e-01
    1.221141664061874e+00     1.163735847368805e-01
    1.110129218310998e+00     1.057941998106790e-01
    1.009208736841629e+00     9.617657146816272e-02
    9.174627818677157e-01     8.743326831661140e-02
    8.340573166234950e-01     7.948480708458729e-02
    7.582341238889884e-01     7.225893010028998e-02
    6.893039136603986e-01     6.568994844706419e-02
    6.266400573308357e-01     5.971814482670637e-02
    5.696728914379904e-01     5.428923070362462e-02
    5.178845392097411e-01     4.935385279606033e-02
    4.708042028431082e-01     4.486714442893828e-02
    4.280038837290662e-01     4.078831767054736e-02
    3.890944917243014e-01     3.708029254586376e-02
    3.537223081062843e-01     3.370935995625455e-02
    3.215657700621158e-01     3.064487524162861e-02
    2.923325474836476e-01     2.785897959958166e-02
    2.657568854979045e-01     2.532634682926483e-02
    2.415971885769543e-01     2.302395309787814e-02
    2.196338242670127e-01     2.093086763694380e-02
    1.996671265726709e-01     1.902806246575028e-02
    1.815155808468271e-01     1.729823941230373e-02
    1.650141736866569e-01     1.572567285935204e-02
    1.500128928357794e-01     1.429606678598289e-02
    1.363753634562668e-01     1.299642480524072e-02
    1.239776083737153e-01     1.181493201634315e-02
    1.127069210254888e-01     1.074084759747087e-02
    1.024608408667120e-01     9.764407162738971e-03
    9.314622191993693e-02     8.876733995716831e-03
    8.467838600109395e-02     8.069758352553672e-03
    7.698035292406023e-02     7.336144101122130e-03
    6.998214068593900e-02     6.669222029280133e-03
    6.362012927128702e-02     6.062929215976683e-03
    5.783648229184939e-02     5.511753914040878e-03
    5.257862120411189e-02     5.010685443598455e-03
    4.779874732493585e-02     4.555168640608806e-03
    4.345340730005273e-02     4.141062446425221e-03
    3.950309807520358e-02     3.764602261924464e-03
    3.591190777881286e-02     3.422365723975445e-03
    3.264718925154270e-02     3.111241593127016e-03
    2.967926325485546e-02     2.828401469679094e-03
    2.698114866051446e-02     2.571274081012684e-03
    2.452831716822794e-02     2.337521906429261e-03
    2.229847032161976e-02     2.125019926999806e-03
    2.027133679541814e-02     1.931836307241686e-03
    1.842848811103457e-02     1.756214833003214e-03
    1.675317110523279e-02     1.596558945901437e-03
    1.523015562888657e-02     1.451417229172373e-03
    1.384559609127822e-02     1.319470212987399e-03
    1.258690559125710e-02     1.199518379284848e-03
    1.144264149100188e-02     1.090471257070099e-03
    1.040240139215297e-02     9.913375090509916e-04
    9.456728568647814e-03     9.012159194872477e-04
    8.597025996560894e-03     8.192872013256372e-04
    7.815478199404325e-03     7.448065481404106e-04
    7.104980198394117e-03     6.770968631695250e-04
    6.459072921777384e-03     6.155426038926676e-04
    5.871884486034065e-03     5.595841861927113e-04
    5.338076815147323e-03     5.087128972295008e-04
    4.852797112664224e-03     4.624662707794255e-04
    4.411633745384605e-03     4.204238829984611e-04
    4.010576137621428e-03     3.822035303884365e-04
    3.645978311435628e-03     3.474577552207497e-04
    3.314525741393555e-03     3.158706868305697e-04
    3.013205222527003e-03     2.871551700660116e-04
    2.739277477568591e-03     2.610501547873116e-04
    2.490252254437579e-03     2.373183226842051e-04
    2.263865687589934e-03     2.157439298371134e-04
    2.058059717426863e-03     1.961308454091111e-04
    1.870963380665747e-03     1.783007686385657e-04
    1.700875801586030e-03     1.620916079233474e-04
    1.546250729525151e-03     1.473560072609808e-04
    1.405682482056398e-03     1.339600066487738e-04
    1.277893166059448e-03     1.217818242657298e-04
    1.161721060511588e-03     1.107107493651854e-04
    1.056110055388670e-03     1.006461358135598e-04
    9.601000506658433e-04     9.149648712557313e-05
    8.728182281363090e-04     8.317862467807181e-05
