================================================================
         omega_k [cm^-1]          g_k [cm^-1]               
================================================================
   -1.994099372174586e+02     6.936029871986132e-01
   -1.964936022628382e+02     1.086654902394653e+00
   -1.912990629492479e+02     1.432115255237171e+00
   -1.839059231440162e+02     1.795809944132829e+00
   -1.744295594125854e+02     2.213752014098890e+00
   -1.630157119375360e+02     2.716766033580198e+00
   -1.498364967469193e+02     3.337137784974027e+00
   -1.350862473320818e+02     4.111535799738085e+00
   -1.189773867378572e+02     5.082540004736352e+00
   -1.017367012018540e+02     6.299100622913175e+00
   -8.360256831601534e+01     7.815508953085848e+00
   -6.482418903574374e+01     9.687672933581506e+00
   -4.566553011592082e+01     1.196348534716632e+01
   -2.642382395510869e+01     1.465494926800378e+01
   -7.528839762045788e+00     1.757826754948375e+01
    1.034878987127015e+01     1.758754067305919e+01
    2.932093531881391e+01     1.524437541601218e+01
    4.851694201893370e+01     1.300712094401903e+01
    6.755354429111877e+01     1.101816898468706e+01
    8.614643168003106e+01     9.296310621421028e+00
    1.040419115277525e+02     7.828138672756184e+00
    1.210021206661944e+02     6.587929134214824e+00
    1.368017761682684e+02     5.545383009819404e+00
    1.512288092536857e+02     4.669283501599499e+00
    1.640866265779797e+02     3.929124546536429e+00
    1.751971012059429e+02     3.295380315318930e+00
    1.844038289629626e+02     2.738460488341969e+00
    1.915753587932414e+02     2.225526408945628e+00
    1.966082787491104e+02     1.711341577118861e+00
    1.994318457946284e+02     1.100685899127779e+00
