================================================================
         omega_k [cm^-1]          g_k [cm^-1]               
================================================================
   -1.994099372174586e+02     3.682225520028388e+03
   -1.964936022628382e+02     5.768874250704137e+03
   -1.912990629492479e+02     7.602867112431066e+03
   -1.839059231440162e+02     9.533663100434640e+03
   -1.744295594125854e+02     1.175244961711070e+04
   -1.630157119375360e+02     1.442286928607292e+04
   -1.498364967469193e+02     1.771632207830108e+04
   -1.350862473320818e+02     2.182747526715983e+04
   -1.189773867378572e+02     2.698237876338088e+04
   -1.017367012018540e+02     3.344090134415151e+04
   -8.360256831601534e+01     4.149126669032403e+04
   -6.482418903574374e+01     5.143028095913804e+04
   -4.566553011592082e+01     6.351219914975244e+04
   -2.642382395510869e+01     7.780074363190802e+04
   -7.528839762045788e+00     9.332016522884631e+04
    1.034878987127015e+01     9.336939473464439e+04
    2.932093531881391e+01     8.092991124569609e+04
    4.851694201893370e+01     6.905269089974069e+04
    6.755354429111877e+01     5.849366823413401e+04
    8.614643168003106e+01     4.935260205634813e+04
    1.040419115277525e+02     4.155831581920501e+04
    1.210021206661944e+02     3.497424496414114e+04
    1.368017761682684e+02     2.943953704634459e+04
    1.512288092536857e+02     2.478846715940379e+04
    1.640866265779797e+02     2.085908357324234e+04
    1.751971012059429e+02     1.749463845920821e+04
    1.844038289629626e+02     1.453804162016210e+04
    1.915753587932414e+02     1.181495796552866e+04
    1.966082787491104e+02     9.085234269540784e+03
    1.994318457946284e+02     5.843362531746325e+03
